freq	dB(S11_fitted)
0.00000000000000000E0	-2.70011690634920809E-14
8.47038658832497937E0	-2.31438591972789265E-14
8.47038658832497937E1	-2.50725141303854926E-14
8.47038658832497937E2	-1.65864324247167017E-13
8.47038658832497937E3	-1.44504470863130230E-11
1.06635849237628166E4	-2.28931340560052110E-11
1.34246580413501793E4	-3.62625700523455130E-11
1.69006431529026524E4	-5.74652380595670120E-11
2.12766491408542446E4	-9.10604783396376583E-11
2.67857142812499482E4	-1.44304855078632288E-10
3.37212163817234956E4	-2.28689294368656038E-10
4.24524962195614641E4	-3.62433799364415554E-10
5.34445262849017588E4	-5.74400691143991615E-10
6.72826722613641515E4	-9.10355986952939134E-10
8.47038658832498470E4	-1.44280168306272860E-9
1.06635849237628233E5	-2.28665957671054354E-9
1.34246580413501904E5	-3.62410076976782758E-9
1.69006431529026679E5	-5.74379668976140678E-9
2.12766491408542624E5	-9.10328407616726309E-9
2.67857142812499660E5	-1.44277140425870698E-8
3.37212163817235222E5	-2.28663691772397160E-8
4.24524962195615085E5	-3.62407155745000953E-8
5.34445262849017944E5	-5.74376093030429580E-8
6.72826722613641870E5	-9.10323657775597361E-8
8.47038658832499003E5	-1.44276306396704035E-7
1.06635849237628322E6	-2.28661895046195074E-7
1.34246580413501926E6	-3.62403090194369693E-7
1.69006431529026746E6	-5.74366205514288986E-7
2.12766491408542668E6	-9.10299123856076520E-7
2.67857142812499838E6	-1.44270187818084494E-6
3.37212163817235444E6	-2.28646558754809170E-6
4.24524962195615263E6	-3.62364603830364018E-6
5.34445262849018299E6	-5.74269587876646970E-6
6.72826722613642225E6	-9.10056502462448691E-6
8.47038658832499536E6	-1.44209262955831674E-5
1.06635849237628366E7	-2.28493589244618844E-5
1.34246580413502037E7	-3.61980617627395773E-5
1.69006431529026857E7	-5.73306063682275102E-5
2.12766491408542890E7	-9.07640219431121942E-5
2.67857142812500015E7	-1.43603897591540841E-4
3.02852662322119892E7	-1.83341254000135345E-4
3.38012863058053714E7	-2.28050449041735792E-4
4.25532982817085781E7	-3.59884666410180820E-4
5.35714285625000031E7	-5.66542079763082551E-4
6.56361900930049824E7	-8.42806101870474578E-4
8.03571428437500046E7	-1.24664154277331218E-3
9.31351228542939147E7	-1.65246562963526911E-3
1.07142857125000002E8	-2.15133690922659238E-3
1.33928571406250008E8	-3.24293327129441789E-3
1.60714285687500014E8	-4.48392940790008243E-3
1.87499999968749975E8	-5.84138320032759850E-3
2.14285714250000003E8	-7.28981898593549094E-3
2.41071428531249987E8	-8.81267156902301707E-3
2.67857142812500015E8	-1.04025765682984295E-2
2.94642857093749999E8	-1.20609286669598958E-2
3.21428571375000027E8	-1.37970971192094582E-2
3.48214285656249967E8	-1.56275886943423092E-2
3.74999999937499950E8	-1.75753399207893279E-2
4.01785714218750023E8	-1.96692327407795520E-2
4.28571428500000007E8	-2.19438687649664876E-2
4.55357142781249991E8	-2.44396040310199636E-2
4.82142857062499974E8	-2.72028314273319172E-2
5.08928571343749958E8	-3.02864948114500221E-2
5.35714285625000031E8	-3.37508220731204345E-2
5.62499999906250014E8	-3.76642705161360558E-2
5.89285714187499998E8	-4.21046849377746479E-2
6.16071428468749893E8	-4.71606755891718876E-2
6.42857142750000055E8	-5.29332292667090343E-2
6.69642857031250038E8	-5.95375718260538367E-2
6.96428571312499933E8	-6.71053042004153699E-2
7.23214285593750095E8	-7.57868362388974681E-2
7.49999999874999901E8	-8.57541428841750175E-2
7.76785714156250151E8	-9.72038646437010101E-2
8.03571428437500046E8	-1.10360767885044986E-1
8.30357142718750119E8	-1.25481568661996001E-1
8.57142857000000014E8	-1.42859104441329854E-1
8.74999999843749876E8	-1.55860717108708635E-1
8.92857142687499916E8	-1.70122363936208476E-1
9.10714285531249956E8	-1.85763397760052262E-1
9.28571428374999996E8	-2.02913367707675940E-1
9.46428571218750214E8	-2.21712619796601995E-1
9.64285714062500077E8	-2.42312853269459438E-1
9.82142856906250117E8	-2.64877605291396145E-1
9.99999999749999979E8	-2.89582629775682054E-1
1.01785714259374993E9	-3.16616128162601473E-1
1.03571428543750033E9	-3.46178780958227295E-1
1.05357142828125006E9	-3.78483518831592436E-1
1.07142857112500001E9	-4.13754961281135891E-1
1.08035714254687498E9	-4.32576356069115331E-1
1.08928571396874974E9	-4.52228439691628470E-1
1.09821428539062493E9	-4.72742058704214152E-1
1.10714285681250013E9	-4.94148510612367176E-1
1.11607142823437511E9	-5.16479462125523181E-1
1.12499999965624986E9	-5.39766855179505978E-1
1.13392857107812484E9	-5.64042799814951756E-1
1.14285714250000003E9	-5.89339453005126668E-1
1.15178571392187523E9	-6.15688882548640404E-1
1.16071428534374976E9	-6.43122915181081467E-1
1.16964285676562518E9	-6.71672968119469260E-1
1.17857142818749994E9	-7.01369863335538213E-1
1.18749999960937513E9	-7.32243623962929924E-1
1.19642857103125011E9	-7.64323252380996365E-1
1.20535714245312509E9	-7.97636489687673489E-1
1.21428571387499984E9	-8.32209556478470347E-1
1.22321428529687504E9	-8.68066875089727930E-1
1.23214285671875001E9	-9.05230773744760597E-1
1.24107142814062477E9	-9.43721173361576326E-1
1.24999999956249974E9	-9.83555258142231636E-1
1.25892857098437538E9	-1.02474713146418939E0
1.26785714240624969E9	-1.06730745903393531E0
1.27678571382812489E9	-1.11124310173709318E0
1.28571428525000053E9	-1.15655674112415818E0
1.29464285667187484E9	-1.20324650099968666E0
1.30357142809375004E9	-1.25130556912661817E0
1.31249999951562502E9	-1.30072182360681099E0
1.32142857093749955E9	-1.35147746903922839E0
1.33035714235937519E9	-1.40354868807680577E0
1.33928571378125016E9	-1.45690531448197635E0
1.34821428520312492E9	-1.51151053420281434E0
1.35714285662500012E9	-1.56732062133588235E0
1.36607142804687487E9	-1.62428471608726888E0
1.37499999946874985E9	-1.68234465196828920E0
1.38392857089062504E9	-1.74143483944597621E0
1.39285714231249980E9	-1.80148221309020284E0
1.40178571373437477E9	-1.86240624890121342E0
1.41071428515624997E9	-1.92411905794783733E0
1.41964285657812517E9	-1.98652556168739114E0
1.42857142799999992E9	-2.04952375336704051E0
1.43749999943749995E9	-2.11300504883561535E0
1.44642857087499976E9	-2.17685472804206803E0
1.45535714231249980E9	-2.24095246859039987E0
1.46428571374999983E9	-2.30517296877220890E0
1.47321428518750008E9	-2.36938665729381226E0
1.48214285662500012E9	-2.43346048430957884E0
1.49107142806250015E9	-2.49725878650374788E0
1.49999999950000018E9	-2.56064421701043710E0
1.50892857093749955E9	-2.62347872909668034E0
1.51785714237500047E9	-2.68562460082463472E0
1.52678571381249983E9	-2.74694548642247582E0
1.53571428525000053E9	-2.80730747889417698E0
1.54464285668749990E9	-2.86658016754357359E0
1.55357142812499993E9	-2.92463767362763249E0
1.56249999956249996E9	-2.98135964732284586E0
1.57142857099999977E9	-3.03663220960859137E0
1.58035714243750025E9	-3.09034882354498031E0
1.58928571387499984E9	-3.14241108073509912E0
1.59821428531250009E9	-3.19272939047815907E0
1.60714285674999990E9	-3.24122356118947152E0
1.61607142818749994E9	-3.28782326601689423E0
1.62499999962499997E9	-3.33246838714206683E0
1.63392857106250000E9	-3.37510923592810208E0
1.64285714250000003E9	-3.41570664877198649E0
1.65178571393750007E9	-3.45423196114510844E0
1.66071428537499988E9	-3.49066686477377086E0
1.66964285681249969E9	-3.52500315514417739E0
1.67857142824999994E9	-3.55724237844943580E0
1.68749999968749975E9	-3.58739538868037133E0
1.69642857112500001E9	-3.61548182676557017E0
1.70535714256250026E9	-3.64152953447589534E0
1.71428571400000007E9	-3.66557391622707929E0
1.73214285687500014E9	-3.70782804397939891E0
1.74999999974999976E9	-3.74265241418262740E0
1.76785714262499982E9	-3.77053123454747618E0
1.78571428549999989E9	-3.79200237511127236E0
1.80357142837500040E9	-3.80763658165773133E0
1.82142857124999979E9	-3.81801901102347019E0
1.83928571412499986E9	-3.82373353841271335E0
1.85714285700000015E9	-3.82535000878770148E0
1.87499999987500021E9	-3.82341438290982527E0
1.89285714274999961E9	-3.81844156925975886E0
1.91071428562500012E9	-3.81091063259435048E0
1.92857142850000018E9	-3.80126201957887755E0
1.94642857137500025E9	-3.78989643059512593E0
1.96428571425000031E9	-3.77717498309133592E0
1.98214285712499994E9	-3.76342034555050953E0
2.00000000000000000E9	-3.74891856405990209E0
2.01785714284375040E9	-3.73392134943767706E0
2.03571428568749990E9	-3.71864863748071528E0
2.05357142853125030E9	-3.70329127627241528E0
2.07142857137500025E9	-3.68801372979920927E0
2.08928571421875020E9	-3.67295671771292476E0
2.10714285706250015E9	-3.65823973560214988E0
2.12499999990625010E9	-3.64396341976773730E0
2.14285714275000005E9	-3.63021173566247324E0
2.16071428559375001E9	-3.61705398056580352E0
2.17857142843749951E9	-3.60454659939363076E0
2.19642857128124991E9	-3.59273481840650399E0
2.21428571412499986E9	-3.58165410551256880E0
2.23214285696875026E9	-3.57133146832026416E0
2.24999999981249932E9	-3.56178660244732948E0
2.26785714265624971E9	-3.55303290314201181E0
2.28571428550000011E9	-3.54507835324685106E0
2.32142857118750001E9	-3.53157613348737742E0
2.35714285687499991E9	-3.52126269189657348E0
2.39285714256250026E9	-3.51407453966244443E0
2.42857142824999972E9	-3.50991531971781079E0
2.46428571393750051E9	-3.50866578240976690E0
2.49999999962499997E9	-3.51019118777233619E0
2.53571428531249987E9	-3.51434677818557173E0
2.57142857100000022E9	-3.52098182030459839E0
2.60714285668750012E9	-3.52994259919984410E0
2.64285714237500047E9	-3.54107465643684050E0
2.67857142806249993E9	-3.55422449283683228E0
2.71428571374999983E9	-3.56924090177069608E0
2.74999999943750018E9	-3.58597605652705109E0
2.78571428512500008E9	-3.60428644269387544E0
2.82142857081249954E9	-3.62403370132961911E0
2.85714285649999988E9	-3.64508542921177447E0
2.89285714218749979E9	-3.66731596729038811E0
2.92857142787500013E9	-3.69060719662267367E0
2.96428571356249959E9	-3.71484935175736997E0
2.99999999924999994E9	-3.73994185420378811E0
3.03571428493749984E9	-3.76579416283269142E0
3.07142857062500019E9	-3.79232663349477317E0
3.10714285631250009E9	-3.81947137655780322E0
3.14285714199999955E9	-3.84717309826324083E0
3.21428571349999981E9	-3.90409408497002852E0
3.28571428500000007E9	-3.96292848208319093E0
3.35714285649999988E9	-4.02376148824195301E0
3.42857142800000014E9	-4.08693766542132408E0
3.46428571375000027E9	-4.11958400511969458E0
3.49999999949999951E9	-4.15306380284629562E0
3.53571428524999964E9	-4.18749213554451671E0
3.57142857099999977E9	-4.22299820711072993E0
3.60714285675000079E9	-4.25972398419093601E0
3.64285714249999959E9	-4.29782244269306535E0
3.67857142824999972E9	-4.33745537768272449E0
3.71428571400000029E9	-4.37879072530474911E0
3.74999999975000042E9	-4.42199934200484090E0
3.78571428549999922E9	-4.46725118427314083E0
3.82142857125000024E9	-4.51471083227135850E0
3.85714285700000037E9	-4.56453230418050193E0
3.89285714275000050E9	-4.61685311635939488E0
3.92857142850000063E9	-4.67178755920887401E0
3.96428571424999987E9	-4.72941918210069900E0
4.00000000000000000E9	-4.78979251526017524E0
4.03571428575000013E9	-4.85290410468304767E0
4.07142857149999937E9	-4.91869300058860404E0
4.10714285724999950E9	-4.98703092272548787E0
4.14285714299999874E9	-5.05771242822993461E0
4.17857142874999976E9	-5.13044552902483186E0
4.21428571449999989E9	-5.20484334231528845E0
4.25000000025000002E9	-5.28041750162419810E0
4.28571428600000015E9	-5.35657419327489670E0
4.35714285737499996E9	-5.50773513634663026E0
4.42857142874999976E9	-5.65157650463572736E0
4.50000000012500045E9	-5.78019924867742230E0
4.57142857149999848E9	-5.88540795186021892E0
4.64285714287500006E9	-5.95993276110585146E0
4.71428571425000076E9	-5.99878735986113298E0
4.78571428562500056E9	-6.00038098244145068E0
4.85714285700000126E9	-5.96699944153785378E0
4.92857142850000152E9	-5.90446426290055015E0
5.00000000000000000E9	-5.82108277474389180E0
5.07142857149999848E9	-5.72623975838166910E0
5.14285714299999874E9	-5.62903184584919725E0
5.19642857149999848E9	-5.55931648219672869E0
5.25000000000000000E9	-5.49525508132410678E0
5.30357142850000152E9	-5.43873619523455609E0
5.35714285700000126E9	-5.39095596866315940E0
5.41071428550000100E9	-5.35244940430192351E0
5.46428571400000074E9	-5.32314475368083961E0
5.51785714249999959E9	-5.30242920364197090E0
5.57142857100000022E9	-5.28921762969404874E0
5.62499999962499952E9	-5.28201956058196842E0
5.67857142825000061E9	-5.27900239673028260E0
5.73214285687499991E9	-5.27805131544459449E0
5.78571428550000100E9	-5.27682822785670158E0
5.83928571412500119E9	-5.27283366548645738E0
5.89285714274999872E9	-5.26347654360958739E0
5.94642857137500158E9	-5.24615724862313826E0
6.00000000000000000E9	-5.21836919602973648E0
6.05357142850000152E9	-5.17782259447362847E0
6.10714285700000126E9	-5.12259131846973670E0
6.16071428550000100E9	-5.05127936782825326E0
6.21428571400000074E9	-4.96319751638027729E0
6.26785714249999959E9	-4.85853406988974701E0
6.32142857100000022E9	-4.73849736922662412E0
6.37499999950000085E9	-4.60540347366697844E0
6.42857142799999970E9	-4.46268217936923328E0
6.45535714231250246E9	-4.38906598829841244E0
6.48214285662499901E9	-4.31477969067896971E0
6.50892857093750088E9	-4.24050320784686896E0
6.53571428525000009E9	-4.16694755008284634E0
6.56249999956249930E9	-4.09484265068420150E0
6.58928571387499851E9	-4.02492420360862546E0
6.61607142818749860E9	-3.95791990399965776E0
6.64285714250000048E9	-3.89453554650303779E0
6.66964285681249969E9	-3.83544147081499043E0
6.69642857112499978E9	-3.78125985240541773E0
6.72321428543749988E9	-3.73255331551642122E0
6.74999999974999998E9	-3.68981529438550027E0
6.77678571406250096E9	-3.65346248907241877E0
6.80357142837500106E9	-3.62382965915934552E0
6.83035714268749850E9	-3.60116687950782266E0
6.85714285700000126E9	-3.58563925667498129E0
6.89285714274999872E9	-3.57159903988751237E0
6.92857142849999974E9	-3.56682421867703425E0
6.96428571424999898E9	-3.57145480568044338E0
7.00000000000000000E9	-3.58560850314151036E0
7.03571428575000102E9	-3.60938285660220970E0
7.07142857150000026E9	-3.64285799647265707E0
7.10714285725000128E9	-3.68609990827607925E0
7.14285714299999874E9	-3.73916415838650362E0
7.17857142868750042E9	-3.80209999195839998E0
7.21428571437499766E9	-3.87495471470738817E0
7.25000000006250112E9	-3.95777826714649539E0
7.28571428575000102E9	-4.05062790444424614E0
7.32142857143749826E9	-4.15357289963320131E0
7.35714285712499816E9	-4.26669919723350066E0
7.39285714281249984E9	-4.39011395512847091E0
7.42857142849999974E9	-4.52394992470422608E0
7.46428571418749964E9	-4.66836963207347555E0
7.49999999987500132E9	-4.82356933605687743E0
7.53571428556250122E9	-4.98978275102028324E0
7.57142857125000113E9	-5.16728453430356449E0
7.60714285693750014E9	-5.35639354855693917E0
7.64285714262500004E9	-5.55747591859982659E0
7.67857142831249995E9	-5.77094791018576547E0
7.71428571400000074E9	-5.99727866393294740E0
7.74107142831249995E9	-6.17577873771323560E0
7.76785714262500004E9	-6.36204843233432626E0
7.79464285693750014E9	-6.55634936147589809E0
7.82142857125000113E9	-6.75896269816011319E0
7.84821428556250122E9	-6.97018976412532609E0
7.87499999987500132E9	-7.19035261329661068E0
7.90178571418749964E9	-7.41979460191892226E0
7.92857142849999974E9	-7.65888093078024745E0
7.95535714281249984E9	-7.90799913471121840E0
7.98214285712499816E9	-8.16755948001935117E0
8.00892857143749737E9	-8.43799521005047382E0
8.03571428575000013E9	-8.71976255038409320E0
8.06250000006250112E9	-9.01334034508776227E0
8.08928571437499855E9	-9.31922913955791365E0
8.11607142868750131E9	-9.63794944760182659E0
8.14285714299999874E9	-9.97003883198593144E0
8.17633928590624848E9	-1.04047893351451348E1
8.20982142881250176E9	-1.08623719489778559E1
8.24330357171874972E9	-1.13438478597412096E1
8.27678571462499946E9	-1.18502013670795714E1
8.31026785753124919E9	-1.23822534650349314E1
8.34375000043749893E9	-1.29405276900033162E1
8.37723214334375044E9	-1.35250444111897838E1
8.41071428625000195E9	-1.41350095347232907E1
8.44419642915624813E9	-1.47683514182764397E1
8.47767857206249786E9	-1.54210491664606164E1
8.51116071496875115E9	-1.60861969178000352E1
8.54464285787500089E9	-1.67527871139100659E1
8.57812500078124884E9	-1.74043189326830250E1
8.61160714368750035E9	-1.80176126475043152E1
8.64508928659375009E9	-1.85626620093506389E1
8.67857142949999982E9	-1.90047929844352792E1
8.71205357240625133E9	-1.93101907629396097E1
8.74553571531249929E9	-1.94542025355298454E1
8.77901785821874903E9	-1.94290888408544538E1
8.81250000112499698E9	-1.92467080511009736E1
8.84598214403125205E9	-1.89343392874164129E1
8.87946428693750178E9	-1.85263915614441332E1
8.91294642984374796E9	-1.80565517907539785E1
8.94642857274999770E9	-1.75530766343972355E1
9.01339285856250072E9	-1.65240835553148879E1
9.08035714437500019E9	-1.55405753656325185E1
9.14732143018749966E9	-1.46418136782815167E1
9.21428571600000090E9	-1.38371112934613616E1
9.25892857324999952E9	-1.33515932423680517E1
9.30357143049999813E9	-1.29044205689417213E1
9.34821428775000030E9	-1.24931436942741581E1
9.39285714500000068E9	-1.21152822583906472E1
9.43750000225000107E9	-1.17684588014983449E1
9.48214285949999969E9	-1.14504597900666494E1
9.52678571675000185E9	-1.11592557574417839E1
9.57142857399999869E9	-1.08929988805876787E1
9.61607143125000086E9	-1.06500085560958135E1
9.66071428849999947E9	-1.04287510717056331E1
9.70535714575000164E9	-1.02278169000900654E1
9.75000000300000025E9	-1.00458976664822863E1
9.79464286024999886E9	-9.88176399835184505E0
9.83928571749999925E9	-9.73424498626719270E0
9.88392857474999964E9	-9.60220971458626593E0
9.92857143200000181E9	-9.48455116751297389E0
9.97321428924999864E9	-9.38017272680668057E0
1.00178571465000021E10	-9.28797742071907351E0
1.00625000037500012E10	-9.20686004150134174E0
1.01071428609999980E10	-9.13570221092918899E0
1.01517857182499993E10	-9.07337043422866785E0
1.01964285755000006E10	-9.01871713961909549E0
1.02410714327500019E10	-8.97058465175567576E0
1.02857142900000009E10	-8.92781199151481530E0
1.03571428612500016E10	-8.86764806685933671E0
1.04285714325000001E10	-8.81364305713086615E0
1.05000000037500008E10	-8.76145734544740584E0
1.05714285750000014E10	-8.70719677550898474E0
1.06428571462499999E10	-8.64759290804447645E0
1.07142857174999984E10	-8.58017153852584968E0
1.07857142887500013E10	-8.50338921272641457E0
1.08571428599999997E10	-8.41671862690970407E0
1.08928571456249967E10	-8.36979460882396253E0
1.09285714312500004E10	-8.32066814192571691E0
1.09642857168749996E10	-8.26955574026094808E0
1.10000000025000011E10	-8.21672791075360287E0
1.10357142881249981E10	-8.16250366438378094E0
1.10714285737500018E10	-8.10724418483645159E0
1.11071428593749988E10	-8.05134581484173850E0
1.11428571450000002E10	-7.99523253957950253E0
1.11785714306250017E10	-7.93934815890247592E0
1.12142857162500009E10	-7.88414834562670741E0
1.12500000018750002E10	-7.83009278591767099E0
1.12857142874999994E10	-7.77763759025907131E0
1.13214285731249986E10	-7.72722815018055176E0
1.13571428587500001E10	-7.67929259750710358E0
1.13928571443749993E10	-7.63423600013371484E0
1.14285714300000008E10	-7.59243540206754552E0
1.14642857156250000E10	-7.55423578665028472E0
1.15000000012500014E10	-7.51994701150005795E0
1.15357142868750007E10	-7.48984173290051380E0
1.15714285724999999E10	-7.46415430726713325E0
1.16071428581249991E10	-7.44308062908908852E0
1.16428571437500006E10	-7.42677883946010109E0
1.16785714293750020E10	-7.41537081791010078E0
1.17142857150000013E10	-7.40894435345395053E0
1.17500000006250005E10	-7.40755587903672108E0
1.17857142862499997E10	-7.41123364703012832E0
1.18214285718749990E10	-7.41998122197585008E0
1.18571428574999982E10	-7.43378116995510929E0
1.18928571431249996E10	-7.45259883114855981E0
1.19285714287499967E10	-7.47638607253650189E0
1.19642857143749981E10	-7.50508493039887625E0
1.19999999999999996E10	-7.53863106642194403E0
1.20267857143749990E10	-7.56693112166007609E0
1.20535714287499962E10	-7.59789110885641605E0
1.20803571431250001E10	-7.63148288477351500E0
1.21071428574999973E10	-7.66767942083824838E0
1.21339285718749990E10	-7.70645530287812264E0
1.21607142862500006E10	-7.74778716716369242E0
1.21875000006250001E10	-7.79165407307602731E0
1.22142857150000017E10	-7.83803781353469287E0
1.22678571437500006E10	-7.93829807959941292E0
1.23214285724999995E10	-8.04848505413169235E0
1.23750000012500005E10	-8.16856980303720093E0
